# log_10[M/(M_sol/h)], b(M)
0.112E+13   0.85
0.125E+13   0.86
0.140E+13   0.87
0.156E+13   0.88
0.175E+13   0.89
0.196E+13   0.91
0.219E+13   0.92
0.245E+13   0.93
0.274E+13   0.95
0.307E+13   0.97
0.343E+13   0.98
0.384E+13   1.00
0.430E+13   1.02
0.481E+13   1.04
0.538E+13   1.06
0.602E+13   1.08
0.674E+13   1.10
0.754E+13   1.12
0.844E+13   1.14
0.944E+13   1.17
0.106E+14   1.20
0.118E+14   1.22
0.132E+14   1.25
0.148E+14   1.28
0.166E+14   1.32
0.185E+14   1.35
0.207E+14   1.39
0.232E+14   1.42
0.260E+14   1.46
0.290E+14   1.50
0.325E+14   1.55
0.364E+14   1.59
0.407E+14   1.64
0.455E+14   1.69
0.510E+14   1.75
0.570E+14   1.81
0.638E+14   1.87
0.714E+14   1.93
0.799E+14   2.00
0.894E+14   2.07
0.100E+15   2.15
