# log_10[M/(M_sol/h)], dn/d(log_10 M) [(h/Mpc)^3]
  12.0675611  0.00691075064
  12.1070833  0.00636048755
  12.1466055  0.00586834596
  12.1861267  0.00535747316
  12.2256489  0.00494675385
  12.2651711  0.00454665348
  12.3046932  0.00420073839
  12.3442154  0.0038271076
  12.3837366  0.00354256504
  12.4232588  0.00325578777
  12.462781  0.0029932675
  12.5023031  0.00275349524
  12.5418253  0.00255466974
  12.5813475  0.00230630324
  12.6208687  0.00214410992
  12.6603909  0.00196823012
  12.699913  0.00181169237
  12.7394352  0.00166497263
  12.7789574  0.00153031212
  12.8184786  0.00140714727
  12.8580008  0.0012926152
  12.8975229  0.00118637574
  12.9370451  0.00109813327
  12.9765673  0.000997910509
  13.0160894  0.000919430866
  13.0556107  0.000845078554
  13.0951328  0.000778011512
  13.134655  0.000707772095
  13.1741772  0.000651437731
  13.2136993  0.000597192324
  13.2532215  0.000545169634
  13.2927427  0.000500853872
  13.3322649  0.000458092691
  13.3717871  0.000417481118
  13.4113092  0.000382470054
  13.4508314  0.000346884626
  13.4903526  0.000316529506
  13.5298748  0.000289082469
  13.569397  0.000262603804
  13.6089191  0.000238602443
  13.6484413  0.000216065455
  13.6879635  0.000195884015
  13.7274847  0.000177034977
  13.7670069  0.000159793213
  13.806529  0.00014401543
  13.8460512  0.000129560663
  13.8855734  0.000116211202
  13.9250946  0.000104129431
  13.9646168  9.29100497E-05
  14.0041389  8.23661394E-05
  14.0436611  7.38801391E-05
  14.0831833  6.5432454E-05
  14.1227055  5.76650746E-05
  14.1622267  5.08357698E-05
  14.2017488  4.4509201E-05
  14.241271  3.8940856E-05
  14.2807932  3.38685386E-05
  14.3203154  2.94679376E-05
  14.3598366  2.54102215E-05
  14.3993587  2.18571986E-05
  14.4388809  1.88185586E-05
  14.4784031  1.57788054E-05
  14.5179253  1.34638603E-05
  14.5574474  1.13229207E-05
  14.5969687  9.47493754E-06
  14.6364908  7.86639612E-06
  14.676013  6.49461208E-06
  14.7155352  5.31867272E-06
  14.7550573  4.32428669E-06
  14.7945795  3.48640015E-06
  14.8341007  2.78758989E-06
  14.8736229  2.20633319E-06
  14.9131451  1.7354439E-06
  14.9526672  1.34520985E-06
  14.9921894  1.03364016E-06
  15.0317106  7.84791553E-07
  15.0712328  5.90310492E-07
  15.110755  4.36060787E-07
  15.1502771  3.1936483E-07
  15.1897993  2.2993089E-07
  15.2293215  1.63649915E-07
  15.2688427  1.14396933E-07
  15.3083649  7.87151748E-08
  15.347887  5.32962723E-08
  15.3874092  3.52445184E-08
  15.4269314  2.30138024E-08
  15.4664526  1.46836898E-08
  15.5059748  9.19265819E-09
  15.5454969  5.62350078E-09
  15.5850191  3.35607253E-09
  15.6245413  1.96048222E-09
  15.6640635  1.11500797E-09
  15.7035847  6.18951668E-10
  15.7431068  3.33731126E-10
  15.782629  1.75018486E-10
  15.8221512  8.90082522E-11
  15.8616734  4.38847014E-11
  15.9011946  2.09859578E-11
  15.9407167  9.65164927E-12
